 --- Cosmological Parameters --- 
	 H0: 2.1561e-18 (1/s) = 66.5300 (km/s/Mpc) 
	 OmegaM: 3.2300e-01 
	 OmegaR: 0.0000e+00 
	 OmegaL: 6.7700e-01 
	 OmegaK: 0.0000e+00 
		 w0: -6.5000e-01 
		 wa: -1.2700e+00 
	 rho_crit: 8.3160e-30 (g/cm^3) 
z, log10(1+z), a, H0*t_look, H0*t_age, H0*t_conf, H0*t_conf_age, H(z) 
1.00000000e-04, 4.34272769e-05, 9.99900010e-01, 9.99908014e-05, 9.34135218e-01, 9.99958008e-05, 3.20018343e+00, 6.65355877e+01
1.02807322e-04, 4.46463579e-05, 9.99897203e-01, 1.02797600e-04, 9.34132411e-01, 1.02802884e-04, 3.20018063e+00, 6.65357445e+01
1.05693455e-04, 4.58996588e-05, 9.99894318e-01, 1.05683180e-04, 9.34129525e-01, 1.05688764e-04, 3.20017774e+00, 6.65359058e+01
1.08660611e-04, 4.71881402e-05, 9.99891351e-01, 1.08649751e-04, 9.34126559e-01, 1.08655653e-04, 3.20017477e+00, 6.65360716e+01
1.11711065e-04, 4.85127895e-05, 9.99888301e-01, 1.11699586e-04, 9.34123509e-01, 1.11705825e-04, 3.20017172e+00, 6.65362420e+01
1.14847155e-04, 4.98746217e-05, 9.99885166e-01, 1.14835022e-04, 9.34120373e-01, 1.14841616e-04, 3.20016859e+00, 6.65364172e+01
1.18071285e-04, 5.12746804e-05, 9.99881943e-01, 1.18058461e-04, 9.34117150e-01, 1.18065431e-04, 3.20016536e+00, 6.65365974e+01
1.21385926e-04, 5.27140387e-05, 9.99878629e-01, 1.21372373e-04, 9.34113836e-01, 1.21379739e-04, 3.20016205e+00, 6.65367826e+01
1.24793621e-04, 5.41937993e-05, 9.99875222e-01, 1.24779296e-04, 9.34110429e-01, 1.24787081e-04, 3.20015864e+00, 6.65369730e+01
1.28296980e-04, 5.57150964e-05, 9.99871719e-01, 1.28281839e-04, 9.34106926e-01, 1.28290068e-04, 3.20015514e+00, 6.65371687e+01
1.31898690e-04, 5.72790956e-05, 9.99868119e-01, 1.31882687e-04, 9.34103326e-01, 1.31891384e-04, 3.20015154e+00, 6.65373699e+01
1.35601511e-04, 5.88869955e-05, 9.99864417e-01, 1.35584598e-04, 9.34099624e-01, 1.35593790e-04, 3.20014783e+00, 6.65375768e+01
1.39408283e-04, 6.05400281e-05, 9.99860611e-01, 1.39390406e-04, 9.34095818e-01, 1.39400122e-04, 3.20014403e+00, 6.65377895e+01
1.43321923e-04, 6.22394601e-05, 9.99856699e-01, 1.43303028e-04, 9.34091905e-01, 1.43313297e-04, 3.20014011e+00, 6.65380082e+01
1.47345431e-04, 6.39865937e-05, 9.99852676e-01, 1.47325461e-04, 9.34087883e-01, 1.47336315e-04, 3.20013609e+00, 6.65382330e+01
1.51481892e-04, 6.57827676e-05, 9.99848541e-01, 1.51460786e-04, 9.34083748e-01, 1.51472257e-04, 3.20013196e+00, 6.65384641e+01
1.55734477e-04, 6.76293582e-05, 9.99844290e-01, 1.55712169e-04, 9.34079496e-01, 1.55724293e-04, 3.20012770e+00, 6.65387017e+01
1.60106446e-04, 6.95277803e-05, 9.99839919e-01, 1.60082868e-04, 9.34075125e-01, 1.60095682e-04, 3.20012333e+00, 6.65389459e+01
1.64601150e-04, 7.14794886e-05, 9.99835426e-01, 1.64576230e-04, 9.34070632e-01, 1.64589774e-04, 3.20011884e+00, 6.65391970e+01
1.69222035e-04, 7.34859785e-05, 9.99830807e-01, 1.69195696e-04, 9.34066013e-01, 1.69210011e-04, 3.20011422e+00, 6.65394552e+01
1.73972643e-04, 7.55487874e-05, 9.99826058e-01, 1.73944805e-04, 9.34061264e-01, 1.73959935e-04, 3.20010947e+00, 6.65397206e+01
1.78856616e-04, 7.76694958e-05, 9.99821175e-01, 1.78827193e-04, 9.34056381e-01, 1.78843184e-04, 3.20010458e+00, 6.65399935e+01
1.83877698e-04, 7.98497285e-05, 9.99816156e-01, 1.83846599e-04, 9.34051362e-01, 1.83863501e-04, 3.20009956e+00, 6.65402740e+01
1.89039738e-04, 8.20911560e-05, 9.99810996e-01, 1.89006869e-04, 9.34046201e-01, 1.89024733e-04, 3.20009440e+00, 6.65405624e+01
1.94346693e-04, 8.43954955e-05, 9.99805691e-01, 1.94311953e-04, 9.34040896e-01, 1.94330833e-04, 3.20008910e+00, 6.65408589e+01
1.99802631e-04, 8.67645125e-05, 9.99800237e-01, 1.99765913e-04, 9.34035442e-01, 1.99785869e-04, 3.20008364e+00, 6.65411637e+01
2.05411735e-04, 8.92000219e-05, 9.99794630e-01, 2.05372927e-04, 9.34029835e-01, 2.05394018e-04, 3.20007803e+00, 6.65414770e+01
2.11178304e-04, 9.17038897e-05, 9.99788866e-01, 2.11137287e-04, 9.34024071e-01, 2.11159579e-04, 3.20007227e+00, 6.65417992e+01
2.17106760e-04, 9.42780341e-05, 9.99782940e-01, 2.17063408e-04, 9.34018145e-01, 2.17086969e-04, 3.20006634e+00, 6.65421304e+01
2.23201647e-04, 9.69244272e-05, 9.99776848e-01, 2.23155827e-04, 9.34012052e-01, 2.23180729e-04, 3.20006025e+00, 6.65424709e+01
2.29467637e-04, 9.96450962e-05, 9.99770585e-01, 2.29419208e-04, 9.34005789e-01, 2.29445528e-04, 3.20005398e+00, 6.65428209e+01
2.35909533e-04, 1.02442125e-04, 9.99764146e-01, 2.35858347e-04, 9.33999350e-01, 2.35886166e-04, 3.20004754e+00, 6.65431808e+01
2.42532274e-04, 1.05317657e-04, 9.99757527e-01, 2.42478175e-04, 9.33992730e-01, 2.42507577e-04, 3.20004092e+00, 6.65435508e+01
2.49340937e-04, 1.08273895e-04, 9.99750721e-01, 2.49283758e-04, 9.33985925e-01, 2.49314834e-04, 3.20003411e+00, 6.65439311e+01
2.56340741e-04, 1.11313103e-04, 9.99743725e-01, 2.56280307e-04, 9.33978928e-01, 2.56313152e-04, 3.20002711e+00, 6.65443222e+01
2.63537052e-04, 1.14437609e-04, 9.99736532e-01, 2.63473177e-04, 9.33971735e-01, 2.63507892e-04, 3.20001992e+00, 6.65447242e+01
2.70935387e-04, 1.17649806e-04, 9.99729138e-01, 2.70867876e-04, 9.33964340e-01, 2.70904567e-04, 3.20001252e+00, 6.65451375e+01
2.78541416e-04, 1.20952156e-04, 9.99721536e-01, 2.78470063e-04, 9.33956738e-01, 2.78508842e-04, 3.20000492e+00, 6.65455624e+01
2.86360972e-04, 1.24347187e-04, 9.99713721e-01, 2.86285556e-04, 9.33948923e-01, 2.86326543e-04, 3.19999710e+00, 6.65459992e+01
2.94400048e-04, 1.27837499e-04, 9.99705687e-01, 2.94320339e-04, 9.33940888e-01, 2.94363659e-04, 3.19998906e+00, 6.65464482e+01
3.02664806e-04, 1.31425767e-04, 9.99697427e-01, 3.02580560e-04, 9.33932628e-01, 3.02626346e-04, 3.19998080e+00, 6.65469099e+01
3.11161583e-04, 1.35114738e-04, 9.99688935e-01, 3.11072541e-04, 9.33924136e-01, 3.11120934e-04, 3.19997231e+00, 6.65473845e+01
3.19896892e-04, 1.38907238e-04, 9.99680205e-01, 3.19802781e-04, 9.33915406e-01, 3.19853928e-04, 3.19996357e+00, 6.65478725e+01
3.28877429e-04, 1.42806171e-04, 9.99671231e-01, 3.28777961e-04, 9.33906430e-01, 3.28832020e-04, 3.19995460e+00, 6.65483741e+01
3.38110078e-04, 1.46814523e-04, 9.99662004e-01, 3.38004949e-04, 9.33897203e-01, 3.38062084e-04, 3.19994537e+00, 6.65488898e+01
3.47601918e-04, 1.50935364e-04, 9.99652519e-01, 3.47490804e-04, 9.33887718e-01, 3.47551192e-04, 3.19993588e+00, 6.65494200e+01
3.57360225e-04, 1.55171849e-04, 9.99642767e-01, 3.57242786e-04, 9.33877966e-01, 3.57306611e-04, 3.19992612e+00, 6.65499651e+01
3.67392478e-04, 1.59527223e-04, 9.99632742e-01, 3.67268355e-04, 9.33867940e-01, 3.67335813e-04, 3.19991609e+00, 6.65505254e+01
3.77706369e-04, 1.64004821e-04, 9.99622436e-01, 3.77575180e-04, 9.33857633e-01, 3.77646478e-04, 3.19990578e+00, 6.65511015e+01
3.88309805e-04, 1.68608072e-04, 9.99611841e-01, 3.88171148e-04, 9.33847037e-01, 3.88246505e-04, 3.19989518e+00, 6.65516938e+01
3.99210913e-04, 1.73340499e-04, 9.99600948e-01, 3.99064364e-04, 9.33836144e-01, 3.99144009e-04, 3.19988428e+00, 6.65523026e+01
4.10418050e-04, 1.78205728e-04, 9.99589750e-01, 4.10263159e-04, 9.33824945e-01, 4.10347338e-04, 3.19987308e+00, 6.65529286e+01
4.21939808e-04, 1.83207482e-04, 9.99578238e-01, 4.21776101e-04, 9.33813432e-01, 4.21865071e-04, 3.19986156e+00, 6.65535721e+01
4.33785019e-04, 1.88349591e-04, 9.99566403e-01, 4.33611993e-04, 9.33801596e-01, 4.33706028e-04, 3.19984972e+00, 6.65542337e+01
4.45962763e-04, 1.93635993e-04, 9.99554236e-01, 4.45779888e-04, 9.33789428e-01, 4.45879275e-04, 3.19983755e+00, 6.65549138e+01
4.58482375e-04, 1.99070734e-04, 9.99541728e-01, 4.58289091e-04, 9.33776919e-01, 4.58394135e-04, 3.19982503e+00, 6.65556130e+01
4.71353453e-04, 2.04657975e-04, 9.99528869e-01, 4.71149168e-04, 9.33764059e-01, 4.71260191e-04, 3.19981217e+00, 6.65563319e+01
4.84585864e-04, 2.10401992e-04, 9.99515649e-01, 4.84369951e-04, 9.33750838e-01, 4.84487293e-04, 3.19979894e+00, 6.65570709e+01
4.98189752e-04, 2.16307184e-04, 9.99502058e-01, 4.97961549e-04, 9.33737247e-01, 4.98085570e-04, 3.19978534e+00, 6.65578306e+01
5.12175544e-04, 2.22378069e-04, 9.99488087e-01, 5.11934353e-04, 9.33723274e-01, 5.12065432e-04, 3.19977136e+00, 6.65586117e+01
5.26553963e-04, 2.28619296e-04, 9.99473723e-01, 5.26299043e-04, 9.33708909e-01, 5.26437583e-04, 3.19975699e+00, 6.65594147e+01
5.41336030e-04, 2.35035640e-04, 9.99458957e-01, 5.41066601e-04, 9.33694142e-01, 5.41213026e-04, 3.19974221e+00, 6.65602401e+01
5.56533078e-04, 2.41632013e-04, 9.99443776e-01, 5.56248314e-04, 9.33678960e-01, 5.56403073e-04, 3.19972702e+00, 6.65610888e+01
5.72156756e-04, 2.48413463e-04, 9.99428170e-01, 5.71855784e-04, 9.33663353e-01, 5.72019351e-04, 3.19971141e+00, 6.65619613e+01
5.88219040e-04, 2.55385179e-04, 9.99412127e-01, 5.87900938e-04, 9.33647307e-01, 5.88073814e-04, 3.19969535e+00, 6.65628582e+01
6.04732245e-04, 2.62552498e-04, 9.99395633e-01, 6.04396038e-04, 9.33630812e-01, 6.04578753e-04, 3.19967885e+00, 6.65637803e+01
6.21709029e-04, 2.69920903e-04, 9.99378677e-01, 6.21353687e-04, 9.33613855e-01, 6.21546801e-04, 3.19966188e+00, 6.65647283e+01
6.39162405e-04, 2.77496033e-04, 9.99361246e-01, 6.38786840e-04, 9.33596421e-01, 6.38990944e-04, 3.19964444e+00, 6.65657028e+01
6.57105755e-04, 2.85283683e-04, 9.99343326e-01, 6.56708814e-04, 9.33578500e-01, 6.56924534e-04, 3.19962650e+00, 6.65667047e+01
6.75552832e-04, 2.93289812e-04, 9.99324903e-01, 6.75133300e-04, 9.33560075e-01, 6.75361297e-04, 3.19960807e+00, 6.65677347e+01
6.94517777e-04, 3.01520545e-04, 9.99305964e-01, 6.94074369e-04, 9.33541134e-01, 6.94315341e-04, 3.19958911e+00, 6.65687936e+01
7.14015130e-04, 3.09982178e-04, 9.99286494e-01, 7.13546487e-04, 9.33521662e-01, 7.13801173e-04, 3.19956963e+00, 6.65698822e+01
7.34059837e-04, 3.18681185e-04, 9.99266479e-01, 7.33564523e-04, 9.33501644e-01, 7.33833702e-04, 3.19954959e+00, 6.65710014e+01
7.54667263e-04, 3.27624220e-04, 9.99245902e-01, 7.54143760e-04, 9.33481065e-01, 7.54428258e-04, 3.19952900e+00, 6.65721519e+01
7.75853206e-04, 3.36818122e-04, 9.99224748e-01, 7.75299911e-04, 9.33459908e-01, 7.75600599e-04, 3.19950783e+00, 6.65733347e+01
7.97633907e-04, 3.46269924e-04, 9.99203002e-01, 7.97049124e-04, 9.33438159e-01, 7.97366923e-04, 3.19948606e+00, 6.65745506e+01
8.20026062e-04, 3.55986854e-04, 9.99180646e-01, 8.19408000e-04, 9.33415800e-01, 8.19743883e-04, 3.19946368e+00, 6.65758007e+01
8.43046837e-04, 3.65976343e-04, 9.99157663e-01, 8.42393603e-04, 9.33392815e-01, 8.42748599e-04, 3.19944068e+00, 6.65770858e+01
8.66713880e-04, 3.76246030e-04, 9.99134037e-01, 8.66023471e-04, 9.33369185e-01, 8.66398669e-04, 3.19941703e+00, 6.65784070e+01
8.91045332e-04, 3.86803767e-04, 9.99109748e-01, 8.90315636e-04, 9.33344893e-01, 8.90712183e-04, 3.19939272e+00, 6.65797652e+01
9.16059848e-04, 3.97657626e-04, 9.99084779e-01, 9.15288627e-04, 9.33319920e-01, 9.15707739e-04, 3.19936772e+00, 6.65811615e+01
9.41776601e-04, 4.08815904e-04, 9.99059110e-01, 9.40961494e-04, 9.33294247e-01, 9.41404454e-04, 3.19934202e+00, 6.65825970e+01
9.68215306e-04, 4.20287133e-04, 9.99032721e-01, 9.67353817e-04, 9.33267855e-01, 9.67821981e-04, 3.19931561e+00, 6.65840727e+01
9.95396231e-04, 4.32080081e-04, 9.99005594e-01, 9.94485721e-04, 9.33240723e-01, 9.94980524e-04, 3.19928845e+00, 6.65855898e+01
1.02334021e-03, 4.44203760e-04, 9.98977706e-01, 1.02237789e-03, 9.33212830e-01, 1.02290085e-03, 3.19926053e+00, 6.65871494e+01
1.05206867e-03, 4.56667438e-04, 9.98949037e-01, 1.05105159e-03, 9.33184157e-01, 1.05160431e-03, 3.19923182e+00, 6.65887527e+01
1.08160363e-03, 4.69480638e-04, 9.98919565e-01, 1.08052868e-03, 9.33154680e-01, 1.08111284e-03, 3.19920232e+00, 6.65904011e+01
1.11196773e-03, 4.82653152e-04, 9.98889267e-01, 1.11083162e-03, 9.33124377e-01, 1.11144901e-03, 3.19917198e+00, 6.65920956e+01
1.14318425e-03, 4.96195044e-04, 9.98858121e-01, 1.14198349e-03, 9.33093225e-01, 1.14263602e-03, 3.19914079e+00, 6.65938376e+01
1.17527712e-03, 5.10116661e-04, 9.98826103e-01, 1.17400804e-03, 9.33061200e-01, 1.17469769e-03, 3.19910873e+00, 6.65956285e+01
1.20827094e-03, 5.24428638e-04, 9.98793187e-01, 1.20692965e-03, 9.33028279e-01, 1.20765853e-03, 3.19907577e+00, 6.65974696e+01
1.24219100e-03, 5.39141905e-04, 9.98759350e-01, 1.24077340e-03, 9.32994435e-01, 1.24154375e-03, 3.19904188e+00, 6.65993622e+01
1.27706330e-03, 5.54267703e-04, 9.98724566e-01, 1.27556506e-03, 9.32959643e-01, 1.27637923e-03, 3.19900705e+00, 6.66013080e+01
1.31291459e-03, 5.69817580e-04, 9.98688807e-01, 1.31133110e-03, 9.32923877e-01, 1.31219159e-03, 3.19897124e+00, 6.66033082e+01
1.34977233e-03, 5.85803413e-04, 9.98652047e-01, 1.34809876e-03, 9.32887110e-01, 1.34900820e-03, 3.19893442e+00, 6.66053646e+01
1.38766479e-03, 6.02237406e-04, 9.98614258e-01, 1.38589601e-03, 9.32849312e-01, 1.38685718e-03, 3.19889657e+00, 6.66074785e+01
1.42662102e-03, 6.19132106e-04, 9.98575411e-01, 1.42475161e-03, 9.32810457e-01, 1.42576746e-03, 3.19885766e+00, 6.66096518e+01
1.46667087e-03, 6.36500410e-04, 9.98535477e-01, 1.46469511e-03, 9.32770513e-01, 1.46576874e-03, 3.19881766e+00, 6.66118859e+01
1.50784505e-03, 6.54355573e-04, 9.98494425e-01, 1.50575690e-03, 9.32729451e-01, 1.50689160e-03, 3.19877654e+00, 6.66141826e+01
1.55017512e-03, 6.72711224e-04, 9.98452224e-01, 1.54796819e-03, 9.32687240e-01, 1.54916743e-03, 3.19873426e+00, 6.66165437e+01
1.59369353e-03, 6.91581368e-04, 9.98408842e-01, 1.59136106e-03, 9.32643847e-01, 1.59262851e-03, -2.96439388e-323, 6.66189709e+01
1.63843365e-03, 7.10980403e-04, 9.98364246e-01, 1.63596850e-03, 9.32599240e-01, 1.63730804e-03, 3.19864612e+00, 6.66214662e+01
1.68442976e-03, 7.30923128e-04, 9.98318403e-01, 1.68182439e-03, 9.32553384e-01, 1.68324012e-03, 3.19860019e+00, 6.66240314e+01
1.73171713e-03, 7.51424755e-04, 9.98271277e-01, 1.72896358e-03, 9.32506245e-01, 1.73045982e-03, 3.19855297e+00, 6.66266684e+01
1.78033202e-03, 7.72500920e-04, 9.98222832e-01, 1.77742184e-03, 9.32457786e-01, 1.77900318e-03, 3.19850442e+00, 6.66293793e+01
1.83031168e-03, 7.94167695e-04, 9.98173032e-01, 1.82723598e-03, 9.32407972e-01, 1.82890725e-03, 3.19845452e+00, 6.66321661e+01
1.88169442e-03, 8.16441599e-04, 9.98121840e-01, 1.87844380e-03, 9.32356765e-01, 1.88021011e-03, 3.19840322e+00, 6.66350310e+01
1.93451965e-03, 8.39339613e-04, 9.98069215e-01, 1.93108416e-03, 9.32304124e-01, 1.93295091e-03, 3.19835048e+00, 6.66379762e+01
1.98882786e-03, 8.62879189e-04, 9.98015120e-01, 1.98519698e-03, 9.32250011e-01, 1.98716989e-03, 3.19829626e+00, 6.66410038e+01
2.04466067e-03, 8.87078267e-04, 9.97959511e-01, 2.04082330e-03, 9.32194385e-01, 2.04290839e-03, 3.19824052e+00, 6.66441163e+01
2.10206088e-03, 9.11955285e-04, 9.97902349e-01, 2.09800530e-03, 9.32137203e-01, 2.10020895e-03, 3.19818322e+00, 6.66473159e+01
2.16107251e-03, 9.37529196e-04, 9.97843588e-01, 2.15678630e-03, 9.32078422e-01, 2.15911524e-03, 3.19812431e+00, 6.66506050e+01
2.22174078e-03, 9.63819479e-04, 9.97783184e-01, 2.21721084e-03, 9.32017997e-01, 2.21967220e-03, 3.19806376e+00, 6.66539863e+01
2.28411221e-03, 9.90846156e-04, 9.97721093e-01, 2.27932469e-03, 9.31955884e-01, 2.28192598e-03, 3.19800150e+00, 6.66574623e+01
2.34823460e-03, 1.01862981e-03, 9.97657267e-01, 2.34317486e-03, 9.31892033e-01, 2.34592405e-03, 3.19793750e+00, 6.66610355e+01
2.41415712e-03, 1.04719158e-03, 9.97591657e-01, 2.40880969e-03, 9.31826399e-01, 2.41171516e-03, 3.19787171e+00, 6.66647088e+01
2.48193029e-03, 1.07655322e-03, 9.97524214e-01, 2.47627883e-03, 9.31758929e-01, 2.47934947e-03, 3.19780408e+00, 6.66684849e+01
2.55160607e-03, 1.10673706e-03, 9.97454888e-01, 2.54563331e-03, 9.31689575e-01, 2.54887850e-03, 3.19773455e+00, 6.66723667e+01
2.62323788e-03, 1.13776607e-03, 9.97383625e-01, 2.61692556e-03, 9.31618283e-01, 2.62035521e-03, 3.19766307e+00, 6.66763572e+01
2.69688063e-03, 1.16966386e-03, 9.97310373e-01, 2.69020946e-03, 9.31544999e-01, 2.69383405e-03, 3.19758959e+00, 6.66804593e+01
2.77259076e-03, 1.20245468e-03, 9.97235075e-01, 2.76554036e-03, 9.31469668e-01, 2.76937096e-03, 3.19751406e+00, 6.66846762e+01
2.85042632e-03, 1.23616346e-03, 9.97157676e-01, 2.84297515e-03, 9.31392233e-01, 2.84702346e-03, 3.19743640e+00, 6.66890111e+01
2.93044698e-03, 1.27081583e-03, 9.97078115e-01, 2.92257227e-03, 9.31312636e-01, 2.92685065e-03, 3.19735658e+00, 6.66934672e+01
3.01271407e-03, 1.30643812e-03, 9.96996335e-01, 3.00439177e-03, 9.31230817e-01, 3.00891328e-03, 3.19727451e+00, 6.66980480e+01
3.09729067e-03, 1.34305740e-03, 9.96912273e-01, 3.08849536e-03, 9.31146713e-01, 3.09327381e-03, 3.19719015e+00, 6.67027570e+01
3.18424160e-03, 1.38070148e-03, 9.96825866e-01, 3.17494642e-03, 9.31060262e-01, 3.17999640e-03, 3.19710343e+00, 6.67075976e+01
3.27363353e-03, 1.41939895e-03, 9.96737048e-01, 3.26381010e-03, 9.30971398e-01, 3.26914701e-03, 3.19701428e+00, 6.67125736e+01
3.36553498e-03, 1.45917918e-03, 9.96645754e-01, 3.35515330e-03, 9.30880055e-01, 3.36079343e-03, 3.19692263e+00, 6.67176888e+01
3.46001639e-03, 1.50007238e-03, 9.96551914e-01, 3.44904478e-03, 9.30786164e-01, 3.45500535e-03, 3.19682842e+00, 6.67229470e+01
3.55715021e-03, 1.54210957e-03, 9.96455458e-01, 3.54555517e-03, 9.30689653e-01, 3.55185435e-03, 3.19673157e+00, 6.67283521e+01
3.65701088e-03, 1.58532264e-03, 9.96356314e-01, 3.64475703e-03, 9.30590451e-01, 3.65141404e-03, 3.19663201e+00, 6.67339084e+01
3.75967497e-03, 1.62974435e-03, 9.96254407e-01, 3.74672491e-03, 9.30488483e-01, 3.75376005e-03, 3.19652967e+00, 6.67396200e+01
3.86522116e-03, 1.67540839e-03, 9.96149661e-01, 3.85153539e-03, 9.30383673e-01, 3.85897011e-03, 3.19642446e+00, 6.67454912e+01
3.97373038e-03, 1.72234936e-03, 9.96041998e-01, 3.95926714e-03, 9.30275941e-01, 3.96712411e-03, 3.19631630e+00, 6.67515264e+01
4.08528580e-03, 1.77060283e-03, 9.95931336e-01, 4.07000098e-03, 9.30165207e-01, 4.07830415e-03, 3.19620512e+00, 6.67577303e+01
4.19997295e-03, 1.82020534e-03, 9.95817593e-01, 4.18381992e-03, 9.30051388e-01, 4.19259461e-03, 3.19609083e+00, 6.67641074e+01
4.31787973e-03, 1.87119444e-03, 9.95700684e-01, 4.30080925e-03, 9.29934399e-01, 4.31008218e-03, 3.19597335e+00, 6.67706627e+01
4.43909653e-03, 1.92360874e-03, 9.95580522e-01, 4.42105655e-03, 9.29814152e-01, 4.43085599e-03, 3.19585257e+00, 6.67774011e+01
4.56371628e-03, 1.97748788e-03, 9.95457017e-01, 4.54465181e-03, 9.29690557e-01, 4.55500760e-03, 3.19572842e+00, 6.67843276e+01
4.69183451e-03, 2.03287261e-03, 9.95330076e-01, 4.67168745e-03, 9.29563521e-01, 4.68263113e-03, 3.19560080e+00, 6.67914475e+01
4.82354943e-03, 2.08980480e-03, 9.95199606e-01, 4.80225838e-03, 9.29432950e-01, 4.81382328e-03, 3.19546960e+00, 6.67987662e+01
4.95896201e-03, 2.14832749e-03, 9.95065508e-01, 4.93646211e-03, 9.29298746e-01, 4.94868343e-03, 3.19533474e+00, 6.68062891e+01
5.09817606e-03, 2.20848488e-03, 9.94927683e-01, 5.07439877e-03, 9.29160810e-01, 5.08731371e-03, 3.19519611e+00, 6.68140220e+01
5.24129830e-03, 2.27032240e-03, 9.94786030e-01, 5.21617120e-03, 9.29019037e-01, 5.22981907e-03, 3.19505361e+00, 6.68219707e+01
5.38843844e-03, 2.33388671e-03, 9.94640441e-01, 5.36188503e-03, 9.28873323e-01, 5.37630734e-03, 3.19490712e+00, 6.68301411e+01
5.53970928e-03, 2.39922578e-03, 9.94490810e-01, 5.51164871e-03, 9.28723560e-01, 5.52688935e-03, 3.19475654e+00, 6.68385393e+01
5.69522678e-03, 2.46638889e-03, 9.94337025e-01, 5.66557365e-03, 9.28569635e-01, 5.68167895e-03, 3.19460175e+00, 6.68471718e+01
5.85511016e-03, 2.53542665e-03, 9.94178973e-01, 5.82377422e-03, 9.28411434e-01, 5.84079316e-03, 3.19444263e+00, 6.68560450e+01
6.01948197e-03, 2.60639109e-03, 9.94016535e-01, 5.98636791e-03, 9.28248840e-01, 6.00435221e-03, 3.19427908e+00, 6.68651656e+01
6.18846824e-03, 2.67933564e-03, 9.93849593e-01, 6.15347531e-03, 9.28081733e-01, 6.17247964e-03, 3.19411095e+00, 6.68745403e+01
6.36219849e-03, 2.75431521e-03, 9.93678023e-01, 6.32522030e-03, 9.27909988e-01, 6.34530238e-03, 3.19393813e+00, 6.68841763e+01
6.54080591e-03, 2.83138620e-03, 9.93501698e-01, 6.50173002e-03, 9.27733478e-01, 6.52295085e-03, 3.19376048e+00, 6.68940807e+01
6.72442742e-03, 2.91060657e-03, 9.93320488e-01, 6.68313506e-03, 9.27552073e-01, 6.70555908e-03, 3.19357787e+00, 6.69042611e+01
6.91320378e-03, 2.99203585e-03, 9.93134260e-01, 6.86956946e-03, 9.27365639e-01, 6.89326475e-03, 3.19339016e+00, 6.69147249e+01
7.10727970e-03, 3.07573520e-03, 9.92942877e-01, 7.06117087e-03, 9.27174037e-01, 7.08620932e-03, 3.19319722e+00, 6.69254801e+01
