 --- Cosmological Parameters --- 
	 H0: 2.1927e-18 (1/s) = 67.6600 (km/s/Mpc) 
	 OmegaM: 1.0000e+00 
	 OmegaR: 0.0000e+00 
	 OmegaL: 0.0000e+00 
	 OmegaK: 0.0000e+00 
		 w0: -1.0000e+00 
		 wa: 0.0000e+00 
	 rho_crit: 8.6009e-30 (g/cm^3) 
z, log10(1+z), a, H0*t_look, H0*t_age, H0*t_conf, H0*t_conf_age, H(z) 
1.00000000e-04, 4.34272769e-05, 9.99900010e-01, 9.99875015e-05, 6.66566679e-01, 9.99925006e-05, 1.99989801e+00, 6.76701493e+01
2.00410782e+00, 4.77715515e-01, 3.32877533e-01, 5.38629673e-01, 1.28036994e-01, 8.46089200e-01, 1.15390880e+00, 3.52294016e+02
4.00811563e+00, 6.99674348e-01, 1.99675901e-01, 6.07183070e-01, 5.94835966e-02, 1.10629781e+00, 8.93700189e-01, 7.58304293e+02
6.01212345e+00, 8.45849553e-01, 1.42610153e-01, 6.30763363e-01, 3.59033036e-02, 1.24472481e+00, 7.55273190e-01, 1.25633750e+03
8.01613126e+00, 9.55020226e-01, 1.10912316e-01, 6.42041544e-01, 2.46251226e-02, 1.33392999e+00, 6.66068014e-01, 1.83173369e+03
1.00201391e+01, 1.04218708e+00, 9.07429564e-02, 6.48443320e-01, 1.82233463e-02, 1.39752857e+00, 6.02469431e-01, 2.47521317e+03
1.20241469e+01, 1.11474929e+00, 7.67804608e-02, 6.52483121e-01, 1.41835457e-02, 1.44581425e+00, 5.54183748e-01, 3.18021090e+03
1.40281547e+01, 1.17690566e+00, 6.65417691e-02, 6.55223394e-01, 1.14432729e-02, 1.48408617e+00, 5.15911826e-01, 3.94176274e+03
1.60321625e+01, 1.23126979e+00, 5.87124505e-02, 6.57182394e-01, 9.48427312e-03, 1.51538696e+00, 4.84611044e-01, 4.75594345e+03
1.80361703e+01, 1.27957958e+00, 5.25315745e-02, 6.58639923e-01, 8.02674318e-03, 1.54160465e+00, 4.58393351e-01, 5.61954776e+03
2.00401782e+01, 1.32304941e+00, 4.75281147e-02, 6.59758948e-01, 6.90771835e-03, 1.56398113e+00, 4.36016874e-01, 6.52989372e+03
2.20441860e+01, 1.36256137e+00, 4.33948937e-02, 6.60640146e-01, 6.02652113e-03, 1.58337118e+00, 4.16626821e-01, 7.48469402e+03
2.40481938e+01, 1.39877641e+00, 3.99230383e-02, 6.61348718e-01, 5.31794840e-03, 1.60038499e+00, 3.99613006e-01, 8.48196772e+03
2.60522016e+01, 1.43220262e+00, 3.69655681e-02, 6.61928560e-01, 4.73810650e-03, 1.61547136e+00, 3.84526637e-01, 9.51997738e+03
2.80562094e+01, 1.46323896e+00, 3.44160515e-02, 6.62410190e-01, 4.25647714e-03, 1.62896873e+00, 3.71029274e-01, 1.05971829e+04
3.00602172e+01, 1.49220449e+00, 3.21955250e-02, 6.62815414e-01, 3.85125263e-03, 1.64113777e+00, 3.58860230e-01, 1.17122067e+04
3.20642251e+01, 1.51935835e+00, 3.02441687e-02, 6.63160188e-01, 3.50647881e-03, 1.65218299e+00, 3.47815013e-01, 1.28638070e+04
3.40682329e+01, 1.54491388e+00, 2.85158366e-02, 6.63456424e-01, 3.21024308e-03, 1.66226734e+00, 3.37730656e-01, 1.40508571e+04
3.60722407e+01, 1.56904884e+00, 2.69743609e-02, 6.63713177e-01, 2.95348988e-03, 1.67152254e+00, 3.28475463e-01, 1.52723282e+04
3.80762485e+01, 1.59191286e+00, 2.55909930e-02, 6.63937441e-01, 2.72922567e-03, 1.68005630e+00, 3.19941701e-01, 1.65272763e+04
4.00802563e+01, 1.61363314e+00, 2.43425940e-02, 6.64134694e-01, 2.53197273e-03, 1.68795773e+00, 3.12040266e-01, 1.78148311e+04
4.20842641e+01, 1.63431868e+00, 2.32103303e-02, 6.64309281e-01, 2.35738612e-03, 1.69530126e+00, 3.04696738e-01, 1.91341870e+04
4.40882719e+01, 1.65406359e+00, 2.21787165e-02, 6.64464687e-01, 2.20197992e-03, 1.70214959e+00, 2.97848409e-01, 2.04845949e+04
4.60922798e+01, 1.67294972e+00, 2.12349032e-02, 6.64603738e-01, 2.06292846e-03, 1.70855599e+00, 2.91442013e-01, 2.18653567e+04
4.80962876e+01, 1.69104865e+00, 2.03681388e-02, 6.64728747e-01, 1.93791962e-03, 1.71456602e+00, 2.85431977e-01, 2.32758192e+04
5.01002954e+01, 1.70842341e+00, 1.95693585e-02, 6.64841621e-01, 1.82504520e-03, 1.72021895e+00, 2.79779047e-01, 2.47153696e+04
5.21043032e+01, 1.72512971e+00, 1.88308657e-02, 6.64943949e-01, 1.72271791e-03, 1.72554880e+00, 2.74449203e-01, 2.61834317e+04
5.41083110e+01, 1.74121710e+00, 1.81460833e-02, 6.65037059e-01, 1.62960778e-03, 1.73058520e+00, 2.69412797e-01, 2.76794620e+04
5.61123188e+01, 1.75672979e+00, 1.75093574e-02, 6.65122074e-01, 1.54459296e-03, 1.73535414e+00, 2.64643857e-01, 2.92029472e+04
5.81163267e+01, 1.77170744e+00, 1.69158007e-02, 6.65199945e-01, 1.46672124e-03, 1.73987848e+00, 2.60119515e-01, 3.07534012e+04
6.01203345e+01, 1.78618572e+00, 1.63611670e-02, 6.65271487e-01, 1.39517973e-03, 1.74417844e+00, 2.55819555e-01, 3.23303627e+04
6.21243423e+01, 1.80019687e+00, 1.58417492e-02, 6.65337396e-01, 1.32927073e-03, 1.74827198e+00, 2.51726022e-01, 3.39333934e+04
6.41283501e+01, 1.81377008e+00, 1.53542965e-02, 6.65398274e-01, 1.26839239e-03, 1.75217509e+00, 2.47822910e-01, 3.55620762e+04
6.61323579e+01, 1.82693190e+00, 1.48959463e-02, 6.65454644e-01, 1.21202308e-03, 1.75590210e+00, 2.44095901e-01, 3.72160131e+04
6.81363657e+01, 1.83970655e+00, 1.44641679e-02, 6.65506958e-01, 1.15970872e-03, 1.75946586e+00, 2.40532138e-01, 3.88948242e+04
7.01403735e+01, 1.85211614e+00, 1.40567156e-02, 6.65555614e-01, 1.11105237e-03, 1.76287796e+00, 2.37120041e-01, 4.05981464e+04
7.21443814e+01, 1.86418097e+00, 1.36715901e-02, 6.65600961e-01, 1.06570569e-03, 1.76614885e+00, 2.33849150e-01, 4.23256318e+04
7.41483892e+01, 1.87591968e+00, 1.33070051e-02, 6.65643305e-01, 1.02336186e-03, 1.76928801e+00, 2.30709986e-01, 4.40769472e+04
7.61523970e+01, 1.88734942e+00, 1.29613601e-02, 6.65682917e-01, 9.83749684e-04, 1.77230406e+00, 2.27693938e-01, 4.58517725e+04
7.81564048e+01, 1.89848606e+00, 1.26332165e-02, 6.65720038e-01, 9.46628662e-04, 1.77520484e+00, 2.24793165e-01, 4.76498003e+04
8.01604126e+01, 1.90934425e+00, 1.23212779e-02, 6.65754882e-01, 9.11784849e-04, 1.77799750e+00, 2.22000504e-01, 4.94707350e+04
8.21644204e+01, 1.91993757e+00, 1.20243729e-02, 6.65787639e-01, 8.79027360e-04, 1.78068860e+00, 2.19309403e-01, 5.13142920e+04
8.41684283e+01, 1.93027863e+00, 1.17414401e-02, 6.65818481e-01, 8.48185399e-04, 1.78328415e+00, 2.16713852e-01, 5.31801971e+04
8.61724361e+01, 1.94037918e+00, 1.14715161e-02, 6.65847561e-01, 8.19105735e-04, 1.78578967e+00, 2.14208327e-01, 5.50681856e+04
8.81764439e+01, 1.95025015e+00, 1.12137237e-02, 6.65875016e-01, 7.91650547e-04, 1.78821026e+00, 2.11787742e-01, 5.69780023e+04
9.01804517e+01, 1.95990174e+00, 1.09672631e-02, 6.65900971e-01, 7.65695566e-04, 1.79055060e+00, 2.09447403e-01, 5.89094004e+04
9.21844595e+01, 1.96934349e+00, 1.07314031e-02, 6.65925538e-01, 7.41128484e-04, 1.79281503e+00, 2.07182972e-01, 6.08621415e+04
9.41884673e+01, 1.97858433e+00, 1.05054743e-02, 6.65948819e-01, 7.17847579e-04, 1.79500757e+00, 2.04990432e-01, 6.28359947e+04
9.61924752e+01, 1.98763264e+00, 1.02888624e-02, 6.65970906e-01, 6.95760514e-04, 1.79713194e+00, 2.02866059e-01, 6.48307367e+04
9.81964830e+01, 1.99649627e+00, 1.00810026e-02, 6.65991883e-01, 6.74783305e-04, 1.79919161e+00, 2.00806392e-01, 6.68461509e+04
1.00200491e+02, 2.00518262e+00, 9.88137500e-03, 6.66011827e-01, 6.54839417e-04, 1.80118979e+00, 1.98808211e-01, 6.88820274e+04
1.02204499e+02, 2.01369863e+00, 9.68950011e-03, 6.66030808e-01, 6.35858965e-04, 1.80312948e+00, 1.96868517e-01, 7.09381627e+04
1.04208506e+02, 2.02205086e+00, 9.50493486e-03, 6.66048889e-01, 6.17778028e-04, 1.80501349e+00, 1.94984511e-01, 7.30143589e+04
1.06212514e+02, 2.03024548e+00, 9.32726937e-03, 6.66066129e-01, 6.00538037e-04, 1.80684442e+00, 1.93153578e-01, 7.51104242e+04
1.08216522e+02, 2.03828834e+00, 9.15612383e-03, 6.66082581e-01, 5.84085234e-04, 1.80862473e+00, 1.91373274e-01, 7.72261719e+04
1.10220530e+02, 2.04618496e+00, 8.99114580e-03, 6.66098296e-01, 5.68370202e-04, 1.81035669e+00, 1.89641305e-01, 7.93614206e+04
1.12224538e+02, 2.05394056e+00, 8.83200780e-03, 6.66113319e-01, 5.53347442e-04, 1.81204248e+00, 1.87955525e-01, 8.15159938e+04
1.14228545e+02, 2.06156008e+00, 8.67840513e-03, 6.66127692e-01, 5.38975000e-04, 1.81368408e+00, 1.86313916e-01, 8.36897197e+04
1.16232553e+02, 2.06904822e+00, 8.53005391e-03, 6.66141453e-01, 5.25214134e-04, 1.81528342e+00, 1.84714582e-01, 8.58824310e+04
1.18236561e+02, 2.07640944e+00, 8.38668937e-03, 6.66154638e-01, 5.12029022e-04, 1.81684226e+00, 1.83155739e-01, 8.80939648e+04
1.20240569e+02, 2.08364797e+00, 8.24806423e-03, 6.66167281e-01, 4.99386494e-04, 1.81836229e+00, 1.81635708e-01, 9.03241622e+04
1.22244577e+02, 2.09076782e+00, 8.11394729e-03, 6.66179412e-01, 4.87255797e-04, 1.81984510e+00, 1.80152903e-01, 9.25728683e+04
1.24248585e+02, 2.09777283e+00, 7.98412216e-03, 6.66191059e-01, 4.75608383e-04, 1.82129217e+00, 1.78705830e-01, 9.48399319e+04
1.26252592e+02, 2.10466664e+00, 7.85838607e-03, 6.66202250e-01, 4.64417721e-04, 1.82270492e+00, 1.77293077e-01, 9.71252056e+04
1.28256600e+02, 2.11145273e+00, 7.73654884e-03, 6.66213008e-01, 4.53659122e-04, 1.82408469e+00, 1.75913307e-01, 9.94285455e+04
1.30260608e+02, 2.11813441e+00, 7.61843187e-03, 6.66223358e-01, 4.43309587e-04, 1.82543274e+00, 1.74565258e-01, 1.01749811e+05
1.32264616e+02, 2.12471485e+00, 7.50386735e-03, 6.66233320e-01, 4.33347668e-04, 1.82675027e+00, 1.73247731e-01, 1.04088865e+05
1.34268624e+02, 2.13119707e+00, 7.39269738e-03, 6.66242914e-01, 4.23753340e-04, 1.82803841e+00, 1.71959593e-01, 1.06445572e+05
1.36272631e+02, 2.13758396e+00, 7.28477330e-03, 6.66252160e-01, 4.14507891e-04, 1.82929823e+00, 1.70699767e-01, 1.08819802e+05
1.38276639e+02, 2.14387828e+00, 7.17995498e-03, 6.66261074e-01, 4.05593814e-04, 1.83053077e+00, 1.69467230e-01, 1.11211427e+05
1.40280647e+02, 2.15008268e+00, 7.07811028e-03, 6.66269673e-01, 3.96994717e-04, 1.83173699e+00, 1.68261012e-01, 1.13620320e+05
1.42284655e+02, 2.15619968e+00, 6.97911441e-03, 6.66277973e-01, 3.88695236e-04, 1.83291781e+00, 1.67080188e-01, 1.16046358e+05
1.44288663e+02, 2.16223173e+00, 6.88284950e-03, 6.66285987e-01, 3.80680956e-04, 1.83407412e+00, 1.65923881e-01, 1.18489423e+05
1.46292671e+02, 2.16818114e+00, 6.78920408e-03, 6.66293730e-01, 3.72938343e-04, 1.83520675e+00, 1.64791253e-01, 1.20949394e+05
1.48296678e+02, 2.17405015e+00, 6.69807266e-03, 6.66301213e-01, 3.65454676e-04, 1.83631649e+00, 1.63681508e-01, 1.23426158e+05
1.50300686e+02, 2.17984090e+00, 6.60935535e-03, 6.66308450e-01, 3.58217992e-04, 1.83740412e+00, 1.62593884e-01, 1.25919601e+05
1.52304694e+02, 2.18555545e+00, 6.52295748e-03, 6.66315451e-01, 3.51217027e-04, 1.83847034e+00, 1.61527656e-01, 1.28429613e+05
1.54308702e+02, 2.19119579e+00, 6.43878925e-03, 6.66322227e-01, 3.44441171e-04, 1.83951587e+00, 1.60482133e-01, 1.30956083e+05
1.56312710e+02, 2.19676381e+00, 6.35676547e-03, 6.66328788e-01, 3.37880419e-04, 1.84054135e+00, 1.59456653e-01, 1.33498907e+05
1.58316717e+02, 2.20226135e+00, 6.27680520e-03, 6.66335143e-01, 3.31525330e-04, 1.84154742e+00, 1.58450582e-01, 1.36057980e+05
1.60320725e+02, 2.20769017e+00, 6.19883154e-03, 6.66341302e-01, 3.25366992e-04, 1.84253468e+00, 1.57463317e-01, 1.38633198e+05
1.62324733e+02, 2.21305196e+00, 6.12277137e-03, 6.66347272e-01, 3.19396980e-04, 1.84350372e+00, 1.56494279e-01, 1.41224462e+05
1.64328741e+02, 2.21834836e+00, 6.04855511e-03, 6.66353062e-01, 3.13607329e-04, 1.84445509e+00, 1.55542915e-01, 1.43831673e+05
1.66332749e+02, 2.22358095e+00, 5.97611650e-03, 6.66358678e-01, 3.07990502e-04, 1.84538931e+00, 1.54608692e-01, 1.46454733e+05
1.68336757e+02, 2.22875124e+00, 5.90539243e-03, 6.66364130e-01, 3.02539361e-04, 1.84630690e+00, 1.53691102e-01, 1.49093548e+05
1.70340764e+02, 2.23386070e+00, 5.83632275e-03, 6.66369422e-01, 2.97247144e-04, 1.84720834e+00, 1.52789659e-01, 1.51748024e+05
1.72344772e+02, 2.23891075e+00, 5.76885006e-03, 6.66374562e-01, 2.92107440e-04, 1.84809411e+00, 1.51903893e-01, 1.54418069e+05
1.74348780e+02, 2.24390275e+00, 5.70291963e-03, 6.66379555e-01, 2.87114164e-04, 1.84896465e+00, 1.51033355e-01, 1.57103592e+05
1.76352788e+02, 2.24883802e+00, 5.63847917e-03, 6.66384408e-01, 2.82261543e-04, 1.84982039e+00, 1.50177615e-01, 1.59804507e+05
1.78356796e+02, 2.25371784e+00, 5.57547874e-03, 6.66389126e-01, 2.77544092e-04, 1.85066174e+00, 1.49336257e-01, 1.62520724e+05
1.80360803e+02, 2.25854343e+00, 5.51387059e-03, 6.66393713e-01, 2.72956597e-04, 1.85148912e+00, 1.48508883e-01, 1.65252158e+05
1.82364811e+02, 2.26331600e+00, 5.45360908e-03, 6.66398176e-01, 2.68494100e-04, 1.85230289e+00, 1.47695110e-01, 1.67998725e+05
1.84368819e+02, 2.26803668e+00, 5.39465054e-03, 6.66402518e-01, 2.64151886e-04, 1.85310343e+00, 1.46894570e-01, 1.70760343e+05
1.86372827e+02, 2.27270661e+00, 5.33695316e-03, 6.66406745e-01, 2.59925464e-04, 1.85389109e+00, 1.46106907e-01, 1.73536929e+05
1.88376835e+02, 2.27732685e+00, 5.28047690e-03, 6.66410860e-01, 2.55810556e-04, 1.85466622e+00, 1.45331780e-01, 1.76328403e+05
1.90380842e+02, 2.28189846e+00, 5.22518339e-03, 6.66414868e-01, 2.51803086e-04, 1.85542914e+00, 1.44568860e-01, 1.79134686e+05
1.92384850e+02, 2.28642245e+00, 5.17103588e-03, 6.66418772e-01, 2.47899167e-04, 1.85618017e+00, 1.43817830e-01, 1.81955701e+05
1.94388858e+02, 2.29089979e+00, 5.11799910e-03, 6.66422576e-01, 2.44095093e-04, 1.85691962e+00, 1.43078384e-01, 1.84791370e+05
1.96392866e+02, 2.29533145e+00, 5.06603922e-03, 6.66426284e-01, 2.40387324e-04, 1.85764777e+00, 1.42350228e-01, 1.87641619e+05
1.98396874e+02, 2.29971834e+00, 5.01512376e-03, 6.66429899e-01, 2.36772480e-04, 1.85836492e+00, 1.41633077e-01, 1.90506374e+05
2.00400882e+02, 2.30406137e+00, 4.96522156e-03, 6.66433424e-01, 2.33247335e-04, 1.85907135e+00, 1.40926657e-01, 1.93385561e+05
2.02404889e+02, 2.30836139e+00, 4.91630267e-03, 6.66436863e-01, 2.29808802e-04, 1.85976730e+00, 1.40230702e-01, 1.96279108e+05
2.04408897e+02, 2.31261925e+00, 4.86833829e-03, 6.66440218e-01, 2.26453931e-04, 1.86045304e+00, 1.39544957e-01, 1.99186945e+05
2.06412905e+02, 2.31683577e+00, 4.82130078e-03, 6.66443492e-01, 2.23179900e-04, 1.86112883e+00, 1.38869174e-01, 2.02109001e+05
2.08416913e+02, 2.32101175e+00, 4.77516351e-03, 6.66446688e-01, 2.19984008e-04, 1.86179489e+00, 1.38203116e-01, 2.05045207e+05
2.10420921e+02, 2.32514796e+00, 4.72990089e-03, 6.66449809e-01, 2.16863669e-04, 1.86245145e+00, 1.37546550e-01, 2.07995497e+05
2.12424928e+02, 2.32924514e+00, 4.68548828e-03, 6.66452856e-01, 2.13816405e-04, 1.86309875e+00, 1.36899253e-01, 2.10959803e+05
2.14428936e+02, 2.33330404e+00, 4.64190195e-03, 6.66455833e-01, 2.10839844e-04, 1.86373699e+00, 1.36261010e-01, 2.13938058e+05
2.16432944e+02, 2.33732535e+00, 4.59911907e-03, 6.66458742e-01, 2.07931708e-04, 1.86436639e+00, 1.35631610e-01, 2.16930198e+05
2.18436952e+02, 2.34130976e+00, 4.55711762e-03, 6.66461584e-01, 2.05089817e-04, 1.86498715e+00, 1.35010853e-01, 2.19936159e+05
2.20440960e+02, 2.34525796e+00, 4.51587638e-03, 6.66464362e-01, 2.02312077e-04, 1.86559946e+00, 1.34398541e-01, 2.22955878e+05
2.22444968e+02, 2.34917058e+00, 4.47537490e-03, 6.66467078e-01, 1.99596478e-04, 1.86620352e+00, 1.33794486e-01, 2.25989291e+05
2.24448975e+02, 2.35304827e+00, 4.43559346e-03, 6.66469733e-01, 1.96941092e-04, 1.86679950e+00, 1.33198502e-01, 2.29036338e+05
2.26452983e+02, 2.35689164e+00, 4.39651301e-03, 6.66472331e-01, 1.94344066e-04, 1.86738759e+00, 1.32610413e-01, 2.32096958e+05
2.28456991e+02, 2.36070129e+00, 4.35811520e-03, 6.66474871e-01, 1.91803620e-04, 1.86796796e+00, 1.32030045e-01, 2.35171091e+05
2.30460999e+02, 2.36447782e+00, 4.32038229e-03, 6.66477357e-01, 1.89318043e-04, 1.86854077e+00, 1.31457230e-01, 2.38258678e+05
2.32465007e+02, 2.36822179e+00, 4.28329716e-03, 6.66479790e-01, 1.86885690e-04, 1.86910620e+00, 1.30891807e-01, 2.41359660e+05
2.34469014e+02, 2.37193377e+00, 4.24684327e-03, 6.66482171e-01, 1.84504980e-04, 1.86966439e+00, 1.30333617e-01, 2.44473980e+05
2.36473022e+02, 2.37561428e+00, 4.21100465e-03, 6.66484502e-01, 1.82174389e-04, 1.87021549e+00, 1.29782508e-01, 2.47601581e+05
2.38477030e+02, 2.37926386e+00, 4.17576583e-03, 6.66486784e-01, 1.79892454e-04, 1.87075967e+00, 1.29238332e-01, 2.50742406e+05
2.40481038e+02, 2.38288303e+00, 4.14111190e-03, 6.66489019e-01, 1.77657763e-04, 1.87129706e+00, 1.28700943e-01, 2.53896401e+05
2.42485046e+02, 2.38647229e+00, 4.10702841e-03, 6.66491208e-01, 1.75468960e-04, 1.87182780e+00, 1.28170203e-01, 2.57063510e+05
2.44489054e+02, 2.39003213e+00, 4.07350139e-03, 6.66493353e-01, 1.73324735e-04, 1.87235203e+00, 1.27645975e-01, 2.60243679e+05
2.46493061e+02, 2.39356303e+00, 4.04051732e-03, 6.66495454e-01, 1.71223827e-04, 1.87286988e+00, 1.27128127e-01, 2.63436856e+05
2.48497069e+02, 2.39706545e+00, 4.00806311e-03, 6.66497513e-01, 1.69165022e-04, 1.87338147e+00, 1.26616531e-01, 2.66642987e+05
2.50501077e+02, 2.40053985e+00, 3.97612611e-03, 6.66499531e-01, 1.67147147e-04, 1.87388694e+00, 1.26111062e-01, 2.69862020e+05
2.52505085e+02, 2.40398667e+00, 3.94469405e-03, 6.66501510e-01, 1.65169072e-04, 1.87438641e+00, 1.25611599e-01, 2.73093904e+05
2.54509093e+02, 2.40740636e+00, 3.91375504e-03, 6.66503450e-01, 1.63229707e-04, 1.87487998e+00, 1.25118023e-01, 2.76338587e+05
2.56513100e+02, 2.41079933e+00, 3.88329758e-03, 6.66505352e-01, 1.61328000e-04, 1.87536778e+00, 1.24630220e-01, 2.79596020e+05
2.58517108e+02, 2.41416599e+00, 3.85331051e-03, 6.66507217e-01, 1.59462934e-04, 1.87584993e+00, 1.24148079e-01, 2.82866153e+05
2.60521116e+02, 2.41750676e+00, 3.82378301e-03, 6.66509047e-01, 1.57633529e-04, 1.87632652e+00, 1.23671490e-01, 2.86148936e+05
2.62525124e+02, 2.42082203e+00, 3.79470460e-03, 6.66510842e-01, 1.55838838e-04, 1.87679766e+00, 1.23200347e-01, 2.89444321e+05
2.64529132e+02, 2.42411218e+00, 3.76606512e-03, 6.66512604e-01, 1.54077945e-04, 1.87726346e+00, 1.22734549e-01, 2.92752260e+05
2.66533139e+02, 2.42737759e+00, 3.73785469e-03, 6.66514332e-01, 1.52349966e-04, 1.87772401e+00, 1.22273994e-01, 2.96072706e+05
2.68537147e+02, 2.43061863e+00, 3.71006375e-03, 6.66516028e-01, 1.50654046e-04, 1.87817942e+00, 1.21818585e-01, 2.99405611e+05
2.70541155e+02, 2.43383566e+00, 3.68268302e-03, 6.66517694e-01, 1.48989358e-04, 1.87862978e+00, 1.21368227e-01, 3.02750929e+05
2.72545163e+02, 2.43702904e+00, 3.65570347e-03, 6.66519328e-01, 1.47355103e-04, 1.87907518e+00, 1.20922827e-01, 3.06108615e+05
2.74549171e+02, 2.44019911e+00, 3.62911635e-03, 6.66520933e-01, 1.45750508e-04, 1.87951571e+00, 1.20482295e-01, 3.09478623e+05
2.76553179e+02, 2.44334621e+00, 3.60291316e-03, 6.66522510e-01, 1.44174825e-04, 1.87995146e+00, 1.20046543e-01, 3.12860908e+05
2.78557186e+02, 2.44647066e+00, 3.57708565e-03, 6.66524058e-01, 1.42627329e-04, 1.88038252e+00, 1.19615485e-01, 3.16255425e+05
2.80561194e+02, 2.44957280e+00, 3.55162579e-03, 6.66525578e-01, 1.41107320e-04, 1.88080897e+00, 1.19189036e-01, 3.19662132e+05
2.82565202e+02, 2.45265293e+00, 3.52652580e-03, 6.66527072e-01, 1.39614119e-04, 1.88123089e+00, 1.18767117e-01, 3.23080983e+05
2.84569210e+02, 2.45571138e+00, 3.50177808e-03, 6.66528539e-01, 1.38147068e-04, 1.88164836e+00, 1.18349647e-01, 3.26511937e+05
2.86573218e+02, 2.45874844e+00, 3.47737529e-03, 6.66529982e-01, 1.36705531e-04, 1.88206146e+00, 1.17936548e-01, 3.29954950e+05
2.88577225e+02, 2.46176440e+00, 3.45331025e-03, 6.66531399e-01, 1.35288891e-04, 1.88247026e+00, 1.17527745e-01, 3.33409982e+05
2.90581233e+02, 2.46475957e+00, 3.42957600e-03, 6.66532792e-01, 1.33896550e-04, 1.88287484e+00, 1.17123164e-01, 3.36876989e+05
2.92585241e+02, 2.46773422e+00, 3.40616577e-03, 6.66534161e-01, 1.32527929e-04, 1.88327528e+00, 1.16722732e-01, 3.40355930e+05
2.94589249e+02, 2.47068863e+00, 3.38307298e-03, 6.66535507e-01, 1.31182466e-04, 1.88367163e+00, 1.16326380e-01, 3.43846766e+05
2.96593257e+02, 2.47362309e+00, 3.36029119e-03, 6.66536831e-01, 1.29859615e-04, 1.88406397e+00, 1.15934037e-01, 3.47349456e+05
2.98597265e+02, 2.47653784e+00, 3.33781419e-03, 6.66538132e-01, 1.28558849e-04, 1.88445237e+00, 1.15545638e-01, 3.50863959e+05
3.00601272e+02, 2.47943317e+00, 3.31563588e-03, 6.66539412e-01, 1.27279654e-04, 1.88483689e+00, 1.15161117e-01, 3.54390236e+05
3.02605280e+02, 2.48230932e+00, 3.29375036e-03, 6.66540671e-01, 1.26021534e-04, 1.88521760e+00, 1.14780409e-01, 3.57928247e+05
3.04609288e+02, 2.48516655e+00, 3.27215186e-03, 6.66541909e-01, 1.24784004e-04, 1.88559456e+00, 1.14403452e-01, 3.61477955e+05
3.06613296e+02, 2.48800510e+00, 3.25083478e-03, 6.66543127e-01, 1.23566597e-04, 1.88596782e+00, 1.14030185e-01, 3.65039321e+05
3.08617304e+02, 2.49082522e+00, 3.22979365e-03, 6.66544325e-01, 1.22368857e-04, 1.88633746e+00, 1.13660547e-01, 3.68612306e+05
